STARLINK-4711           
Time(t),Position x(r_x),y(r_y),z(r_z),Velocity x(v_x),y(v_y),z(v_z)
2459905.5,3996.7456472748304,-910.7685842860774,5425.914113454051,2.354355875055534,7.2681432799099746,-0.5127866764709821
2459905.5006951396,4128.935923356396,-472.5014346373386,5382.744113634999,2.0459054883017957,7.32065452375458,-0.9242565372564585
2459905.5013902793,4242.313344043127,-32.081168517550395,5314.978394433651,1.7281205159779416,7.339811448190353,-1.3315195895445107
2459905.502085419,4336.360357540672,408.48549447977337,5222.92539657552,1.4024424305774694,7.325523820300315,-1.7327215852256483
2459905.5027805585,4410.647110012178,847.1909378633445,5107.004173678597,1.070349074790438,7.277852092936991,-2.126034652473785
2459905.5034756977,4464.833409960792,1282.035412754174,4967.742667533678,0.7333485153699082,7.197007508921124,-2.509665093177286
2459905.5041708373,4498.6704660347,1711.0372394426943,4805.775012150978,0.39297159600519155,7.083351307722541,-2.8818623813459268
2459905.504865977,4512.001877599319,2132.240044952528,4621.839310841637,0.05076659806469928,6.93739388624004,-3.2409254977973574
2459905.5055611166,4504.764595931227,2543.722831097864,4416.7740254025575,-0.29170849468330656,6.759792811784199,-3.5852117176635825
2459905.5062562563,4476.989269327587,2943.608453571005,4191.51434776422,-0.6328927263066622,6.551350427324771,-3.9131439425092034
2459905.506951396,4428.8002105833275,3330.0722277301197,3947.088035658095,-0.9712292205738292,6.313010752053159,-4.2232180971240245
2459905.5076465355,4360.4149386889885,3701.3503280967484,3684.610810768514,-1.3051723032134996,6.045855706823545,-4.514010289986117
2459905.508341675,4272.143291411599,4055.7479406710813,3405.2813348614723,-1.633194663290155,5.751100654918049,-4.78418369330226
2459905.509036815,4164.386107426644,4391.647126754428,3110.3757821308664,-1.953794518154373,5.4300892537738115,-5.032495095689938
2459905.509731954,4037.63357007724,4707.514152325546,2801.2422404431404,-2.265502536886481,5.084287859250438,-5.257800935581672
2459905.5104270936,3892.4626814211956,5001.907484103568,2479.293704486659,-2.5668897195072025,4.715278069095858,-5.459063639792149
2459905.5111222332,3729.5351787898107,5273.483270327189,2146.0028195141563,-2.8565730672102125,4.324750940871375,-5.635355991186685
2459905.511817373,3549.5942029556045,5521.002503367748,1802.8942599983293,-3.133223175608944,3.914498272762249,-5.78586649871766
2459905.5125125125,3353.4609731146857,5743.3366156541,1451.537862262552,-3.3955705505261684,3.48640441937094,-5.9099034188389705
2459905.513207652,3142.0309990603,5939.472772058777,1093.5413218075157,-3.642411862680562,3.0424373278866588,-6.006898324047615
2459905.513902792,2916.2699270495623,6108.518608408498,730.5426956934384,-3.87261588026403,2.5846390701767286,-6.076409023135036
2459905.5145979314,2677.2090401630867,6249.706387617261,364.2027498818242,-4.08512903224079,2.115115930662107,-6.118121802628889
2459905.515293071,2425.940436705825,6362.396548755408,-3.80280695363441,-4.27898055816998,1.6360281167531898,-6.131852965958511
2459905.51598821,2163.6120919097625,6446.0805823044275,-371.79091433942307,-4.453287094289353,1.1495794922383407,-6.117549673601467
2459905.51668335,1891.4217624872613,6500.383512884559,-738.0800107309326,-4.607257334605509,0.6580054463200494,-6.075289981670953
2459905.5173784895,1610.6124200576276,6525.0651856226295,-1100.9964012215178,-4.740195017867358,0.16356388078491607,-6.005282270885711
2459905.518073629,1322.4657272953068,6520.021471978452,-1458.8830340604,-4.851502554613668,-0.3314771271641884,-5.907863883645383
2459905.5187687688,1028.2962104864991,6485.284502881382,-1810.1069414068722,-4.9406834911768716,-0.8248500238354532,-5.783499083914372
2459905.5194639084,729.4451216634641,6421.022308088275,-2153.0667839812386,-5.0073445284833955,-1.314298708194993,-5.632776345598727
2459905.520159048,427.2741967408669,6327.537803838414,-2486.2002135583007,-5.051196969408036,-1.7975892919705732,-5.456405002284747
2459905.5208541877,123.15934389011244,6205.267141105556,-2807.9910160857626,-5.072057598591983,-2.2725206199596357,-5.255211297162846
2459905.5215493273,-181.51570404809053,6054.777430820606,-3116.9760006926567,-5.069849004995097,-2.7369344859050146,-5.030133877030266
2459905.5222444665,-485.3655371492547,5876.763994405851,-3411.7514101969095,-5.044599387848526,-3.18872518846355,-4.782218951613675
2459905.522939606,-787.0102037938649,5672.046410740881,-3690.9799893344702,-4.996441734755447,-3.625850175875704,-4.5126141418712535
2459905.5236347457,-1085.0802502212541,5441.565221333209,-3953.395745278415,-4.925612689789687,-4.046337217503861,-4.222563599544558
2459905.5243298854,-1378.2237102695733,5186.376934596833,-4197.810330765879,-4.8324508014806735,-4.448294128366175,-3.9134011248281393
2459905.525025025,-1665.1119599826159,4907.649103910823,-4423.118040625557,-4.717394396864023,-4.829916455976097,-3.586543788476462
2459905.5257201646,-1944.4456356528638,4606.654831277158,-4628.300610100582,-4.58097904290577,-5.189494948090283,-3.243485139569666
2459905.5264153043,-2214.9603880711,4284.766838631334,-4812.431598588225,-4.423834636701331,-5.525422485364769,-2.8857882023797017
2459905.527110444,-2475.432451643224,3943.451139076425,-4974.680347387161,-4.246682155890704,-5.8362004765217925,-2.5150783031871247
2459905.5278055836,-2724.6840088781355,3584.260340282609,-5114.31550237327,-4.05033009912482,-6.120444719046363,-2.133035763294477
2459905.5285007227,-2961.588178158149,3208.8268685293474,-5230.708024506018,-3.835670793798491,-6.376890570414866,-1.7413887547211704
2459905.5291958624,-3185.0745438444833,2818.8546145641426,-5323.334119307473,-3.6036757086175695,-6.604398432993753,-1.341904758405177
2459905.529891002,-3394.1328530888854,2416.112833404025,-5391.776950408715,-3.355391980935621,-6.801957032951764,-0.9363845995288557
2459905.5305861416,-3587.8180427770135,2002.4272931782696,-5435.728695349922,-3.0919372978595314,-6.968687944120002,-0.526653824505324
2459905.5312812813,-3765.2541798455445,1579.6724520408434,-5454.991731825171,-2.8144952741510174,-7.103848741052444,-0.11455535646653812
2459905.531976421,-3925.6382728960234,1149.7632028958287,-5449.479452734752,-2.5243104985331364,-7.206835859141282,0.29805812418596994
2459905.5326715605,-4068.2437807442298,714.6464604758345,-5419.216623529514,-2.2226833939950876,-7.277186986073098,0.709331807462991
2459905.5333667,-4192.423806953013,276.29261868315666,-5364.339281530852,-1.9109648972882693,-7.3145829863558225,1.11741638382003
2459905.53406184,-4297.613969566099,-163.31309364906673,-5285.094177238916,-1.5905509610837412,-7.318849356269564,1.520475670716245
2459905.534756979,-4383.3348847066145,-602.1790371167584,-5181.837835077015,-1.2628771025586578,-7.289957232540211,1.9166939666258747
2459905.5354521186,-4449.1945718015095,-1038.3170994284421,-5055.034787269129,-0.9294116742683767,-7.228023782471673,2.3042847067472434
2459905.5361472582,-4494.889941075851,-1469.7497061770534,-4905.256060506618,-0.5916511660808949,-7.133312305848067,2.6814964377631783
2459905.536842398,-4520.208502758268,-1894.5197593836592,-4733.176532775025,-0.251113148024259,-7.006231641821471,3.0466214104478913
2459905.5375375375,-4525.029393077964,-2310.699055314269,-4539.57216193907,0.09066985514337526,-6.8473350936784305,3.398002773506621
2459905.538232677,-4509.324078756193,-2716.3969149871277,-4325.316707248619,0.43215685671842985,-6.657318776015254,3.7340419483291365
2459905.538927817,-4473.156667327129,-3109.7686979377604,-4091.3780109540576,0.7718050374619105,-6.4370193683908115,4.053205887909586
2459905.5396229564,-4416.683815554217,-3489.024162822063,-3838.813847949383,1.1080764937884895,-6.187411252146647,4.354034186061087
2459905.540318096,-4340.154229424055,-3852.435637080506,-3568.7673535711247,1.4394450821625704,-5.909603009354816,4.635145998227522
2459905.541013235,-4243.907821695377,-4198.345731226922,-3282.4622391129487,1.764403117030016,-5.604833479408664,4.8952465639093745
2459905.541708375,-4128.374110637922,-4525.1759242128655,-2981.196638263733,2.0814691869289503,-5.274466100201615,5.1331343007669235
2459905.5424035145,-3994.070859500106,-4831.432531492613,-2666.338508189314,2.3891937957792275,-4.919984636810927,5.347705841359894
2459905.543098654,-3841.601667245846,-5115.71465423039,-2339.318766979478,2.6861671460582017,-4.54298621173519,5.537962449424576
2459905.543793794,-3671.6534495848696,-5376.720560051004,-2001.6250449298311,2.971025738950931,-4.145174666867572,5.703015111717225
2459905.5444889334,-3484.993456158756,-5613.253871386869,-1654.7949469602875,3.242459059865483,-3.728353085281113,5.8420893290067735
2459905.545184073,-3282.465891415425,-5824.229285706696,-1300.409043206175,3.499216079525019,-3.294415695492716,5.954529375523155
2459905.5458792127,-3064.988151820192,-6008.677791624381,-940.0836211769167,3.7401115198815846,-2.845339194821939,6.039801980848611
2459905.5465743523,-2833.54669510812,-6165.751347372554,-575.4632354959667,3.964031834200712,-2.383173537465798,6.097499392735445
2459905.547269492,-2589.1925602874617,-6294.726991141098,-208.21309353186268,4.169940851891087,-1.9100322413725928,6.1273417849669265
2459905.547964631,-2333.036735294527,-6395.010298811645,159.98843623644015,4.356884922290301,-1.4280826009812533,6.129178989154505
2459905.5486597707,-2066.244351614536,-6466.13853039041,527.4586319860967,4.523998239305977,-0.9395339260173997,6.102991498410503
2459905.5493549104,-1790.0303275863016,-6507.782486351681,892.516796578497,4.67050646002554,-0.4466287398280171,6.048890757609304
2459905.55005005,-1505.6530541376712,-6519.748404509243,1253.493100402068,4.795731090189365,0.04836944849798129,5.967118759452376
2459905.5507451897,-1214.408711055938,-6501.978830766823,1608.736142909632,4.8990926955294105,0.5431868843060856,5.85804688383315
2459905.5514403293,-917.6252312862762,-6454.552901052428,1956.6206701734786,4.980113694674404,1.0355506665067646,5.722174036893034
2459905.552135469,-616.6561145159502,-6377.68595766424,2295.5551598673715,5.038420586614346,1.5231998055153992,5.56012409852561
2459905.5528306086,-312.8741242522005,-6271.72850482626,2623.9892329681334,5.073745604194348,2.003896162351855,5.37264270509649
2459905.553525748,-7.664902896794074,-6137.164512790823,2940.420853272749,5.085927791818907,2.4754351950778584,5.160593400728545
2459905.5542208874,297.57925657559036,-5974.609202213415,3243.403079825267,5.074913527107748,2.935656139795035,4.9249533616386545
2459905.554916027,601.4666748109141,-5784.805635676579,3531.5515372149134,5.04075642166627,3.382453397496933,4.66680775859778
2459905.5556111666,902.6114843315102,-5568.621818615877,3803.5495488957995,4.983616766518961,3.8137844636851015,4.387345212787849
2459905.5563063063,1199.6408233528016,-5327.046153859136,4058.1549680655057,4.903760394909382,4.22768052476324,4.08785123376807
2459905.557001446,1491.200923542468,-5061.182865059608,4294.205609583783,4.801557058445735,4.622255032022275,3.769702020371048
2459905.5576965855,1775.9632906883796,-4772.246801568481,4510.624497350129,4.677478330266254,4.995712088051295,3.4343577574270987
2459905.558391725,2052.63074605855,-4461.557755140702,4706.42469964543,4.53209506348131,5.346354308615522,3.0833556064129204
2459905.559086865,2319.9433025993067,-4130.534320552855,4880.713735396389,4.3660744343770155,5.672590142444711,2.7183024357116548
2459905.5597820044,2576.683851883441,-3780.687333086392,5032.697536988313,4.1801765998023575,5.972940637693161,2.340867333059268
2459905.5604771436,2821.683479528548,-3413.613167640287,5161.683879153226,3.9752511407280973,6.246045475665856,1.95277420221847
2459905.5611722833,3053.827356999183,-3030.985435228953,5267.085751623426,3.752232470070799,6.490669330915768,1.5557929051701511
2459905.561867423,3272.0587474656127,-2634.548829601885,5348.42340980177,3.512136321657361,6.7057058594995285,1.1517328998406733
2459905.5625625625,3475.3843936916182,-2226.1102347247074,5405.326827311977,3.2560545944506245,6.890182981311525,0.742434195342493
2459905.563257702,3662.878787033174,-1807.5307904007282,5437.537209698116,2.9851506013713784,7.043266667271166,0.32975953413603837
2459905.563952842,3833.68830381886,-1380.7174952069947,5444.908115980023,2.7006539406417818,7.164264370442394,-0.084413726429898
2459905.5646479814,3987.035026631847,-947.6146197902672,5427.406091819288,2.403855134969679,7.25262791109206,-0.4982017595008086
2459905.565343121,4122.22023688594,-510.1949634230432,5385.110813177113,2.096100050843271,7.307955815585989,-0.9097224253756051
2459905.5660382607,4238.627565880359,-70.45098654287587,5318.214740249801,1.7787841083319356,7.329995106287278,-1.317103424823652
2459905.5667334,4335.725733548615,369.6138530484011,5227.022351478546,1.4533465112644448,7.318642555188213,-1.7184901675720339
2459905.5674285395,4413.0712274138,807.9952953711704,5111.948560184983,1.1212631883054214,7.273945301591993,-2.1120549446669767
2459905.568123679,4470.309966868079,1242.6955461437533,4973.517273932842,0.784041739600696,7.196100991709221,-2.496003361629015
2459905.568818819,4507.179244378746,1671.7334839836553,4812.35887735977,0.44321403524553726,7.085457273040488,-2.8685833945534216
2459905.5695139584,4523.508924453676,2093.153344218514,4629.207520176648,0.10032973861847864,6.942510684892096,-3.228092996719001
2459905.570209098,4519.222307934226,2505.033612584988,4424.897882625923,-0.24305052866806529,6.767904926403437,-3.5728878507487876
2459905.5709042377,4494.336581998286,2905.4957957671513,4200.361479832009,-0.5853621460469285,6.562428480844775,-3.9013889629520206
2459905.5715993773,4448.962849051386,3292.7130296026944,3956.622515555094,-0.9250435549692549,6.327011579838103,-4.212090063408314
2459905.572294517,4383.3057291553305,3664.9184848555237,3694.7932981859317,-1.2605433948544191,6.0627224937499395,-4.503564771382374
2459905.572989656,4297.662596357469,4020.413297564418,3416.0694264557587,-1.59032746431355,5.770763342939688,-4.774473307832855
2459905.5736847958,4192.422076372981,4357.575388556847,3121.7236204715255,-1.912886789621214,5.452464214957245,-5.023569769039252
2459905.5743799354,4068.0627007512335,4674.86558509656,2813.101049423707,-2.2267434553662677,5.109278570679735,-5.249707223647457
2459905.575075075,3925.150572086157,4970.835771108179,2491.612442028898,-2.5304585769492176,4.74277603272772,-5.451844216453055
2459905.5757702147,3764.3368741084855,5244.135421185183,2158.727782441523,-2.822639041458571,4.3546354637324205,-5.629049869195856
2459905.5764653543,3586.3549175113862,5493.517932260208,1815.96952272171,-3.1019443032709377,3.9466372221413337,-5.7805086477412875
2459905.577160494,3392.0167838204316,5717.8464717927,1464.9055258400817,-3.367092961673963,3.520654816181061,-5.905524561412637
2459905.5778556336,3182.209581914293,5916.099307575088,1107.1417746415948,-3.616869070455968,3.078645998936173,-6.003524752604907
2459905.578550773,2957.89133479896,6087.374587104196,744.3148845481842,-3.850128130123781,2.6226433559660642,-6.074062439847047
2459905.5792459124,2720.086680736774,6230.8944511054215,378.0847058984928,-4.065802576858265,2.1547447616757918,-6.116819164292184
2459905.579941052,2469.8814384878565,6346.008995637339,10.125581365515872,-4.2629075664840315,1.677101874821361,-6.131606450409773
2459905.5806361916,2208.418475784325,6432.198665825035,-357.88001157683794,-4.440544874106644,1.1919114689192032,-6.118366481722063
2459905.5813313313,1936.8917200331935,6489.076989626387,-724.2503013117448,-4.597907765894797,0.7014033991598609,-6.077172357218132
2459905.582026471,1656.5407111986979,6516.3921495440345,-1087.3118235956665,-4.734284613386704,0.20782997280360607,-6.00822745240472
2459905.5827216106,1368.6447898638376,6514.028000252557,-1445.4072098177112,-4.849062117711334,-0.28654506269644175,-5.911864103579749
2459905.58341675,1074.5171084066824,6482.004424699483,-1796.9028752148342,-4.941727975861304,-0.7794575232883255,-5.788541594874157
2459905.58411189,775.4984991601307,6420.477031561925,-2140.1965659115344,-5.011872978554918,-1.268653704572558,-5.638843473371522
2459905.5848070295,472.9512338344451,6329.736201593026,-2473.7247253842593,-5.059192536180827,-1.7519011350160618,-5.463474224696234
2459905.5855021686,168.2529130059156,6210.205584398539,-2795.9694313190344,-5.083487627560725,-2.22699878016971,-5.263255489881723
2459905.5861973083,-137.21070753329124,6062.439542785309,-3105.466147605518,-5.084665247916765,-2.691788530885098,-5.039121029419202
2459905.586892448,-442.05085375751787,5887.120814372317,-3400.809038877722,-5.062738166008074,-3.1441631553168574,-4.792112536589695
2459905.5875875875,-744.8828879595095,5685.0568103939295,-3680.6581400421583,-5.017824336849666,-3.582077036152703,-4.523373665149805
2459905.588282727,-1044.3323884208883,5457.175731652535,-3943.745093845313,-4.950145711903208,-4.003554857981082,-4.234144295596273
2459905.588977867,-1339.0413483232285,5204.522087270226,-4188.878745327052,-4.860026603636731,-4.406700134266792,-3.925754319343063
2459905.5896730064,-1627.6742630605943,4928.251716464739,-4414.950353451,-4.7478916110163825,-4.789703227911459,-3.5996171172134632
2459905.590368146,-1908.9240805433853,4629.626344337887,-4620.938402998204,-4.614263137783468,-5.1508488486580015,-3.257222780479546
2459905.5910632857,-2181.5179910067422,4310.007703447014,-4805.913002624417,-4.459758535644822,-5.488523017998422,-2.900131119451917
2459905.591758425,-2444.222862346576,3970.8514866900905,-4969.039755790978,-4.28508702741689,-5.801219297987595,-2.529964752590478
2459905.5924535645,-2695.851343473077,3613.699774751783,-5109.583721492146,-4.091045711171772,-6.0875455094475805,-2.148400807753592
2459905.593148704,-2935.2659933791037,3240.175412202486,-5226.911854480647,-3.8785164628062017,-6.3462278449746234,-1.7571650102208412
2459905.593843844,-3161.3849425837034,2851.9738151721776,-5320.496107283755,-3.648461419283605,-6.576116580058495,-1.3580232197081354
2459905.5945389834,-3373.186412419866,2450.8556204856354,-5389.915512308843,-3.4019187874360566,-6.776190206079939,-0.9527741399815892
2459905.595234123,-3569.7131486861617,2038.6388676769,-5434.857927000004,-3.1399983204865545,-6.945559288696924,-0.5432417461104523
2459905.5959292627,-3750.076577363522,1617.1909639320725,-5455.121323497807,-2.8638765870370184,-7.083469844412866,-0.13126768614130807
2459905.5966244023,-3913.460670319723,1188.4204605205268,-5450.6146216081925,-2.574792043483272,-7.189306244045263,0.2812963331151162
2459905.597319542,-4059.1255094302132,754.2686689609096,-5421.358064369811,-2.274039917835189,-7.2625936487122855,0.6925961687284302
2459905.598014681,-4186.410459042203,316.7014385684071,-5367.48318018431,-1.9629671217609461,-7.302999964217014,1.1007825948393521
2459905.598709821,-4294.7374225821595,-122.3006391749545,-5289.232082010285,-1.6429659306967739,-7.310337429566792,1.5040200164144768
2459905.5994049604,-4383.6129239223155,-560.7491668457188,-5186.956686870712,-1.3154695786420894,-7.284563481680644,1.9004924390983773
2459905.6001001,-4452.6307098515335,-996.6578570899962,-5061.117133942971,-0.9819455979925211,-7.225781426700884,2.288412160870552
2459905.6007952397,-4501.473551787779,-1428.0510025157448,-4912.279903203766,-0.6438900189990355,-7.134240440570849,2.666027062897507
2459905.6014903793,-4529.914773262703,-1852.9722248614307,-4741.11545296655,-0.30282119499151283,-7.010335086384155,3.031628131631821
2459905.602185519,-4537.819401673459,-2269.4931792831685,-4548.395407252326,0.0397265352770608,-6.854604288415199,3.383556918639966
2459905.6028806586,-4525.14493474758,-2675.722180400973,-4334.989297347283,0.38220933878522084,-6.667729739118121,3.7202129145851
2459905.603575798,-4491.941712835913,-3069.812715271526,-4101.86086348369,0.7230805197220632,-6.450533714852539,4.040060808776661
2459905.6042709374,-4438.352931745624,-3449.971557393716,-3850.064099147486,1.0607970489508174,-6.203976451648601,4.34163740507226
